Variables="density","machnumber","pressure","temperature","velocity:0","velocity:1","velocity:2","vtkValidPointMask","arc_length","Points:0","Points:1","Points:2"
1.093159168959e-01,3.324940204620e-01,9.262930664062e+03,2.935103759766e+02,1.145197067261e+02,2.302244864404e-02,0.000000000000e+00,1,0.000000000000e+00,-1.499999966472e-02,0.000000000000e+00,-7.628296432027e-12
1.092895567417e-01,3.331095576286e-01,9.259959960938e+03,2.934869995117e+02,1.147268066406e+02,3.081989660859e-02,0.000000000000e+00,1,4.150001332164e-04,-1.458499953151e-02,0.000000000000e+00,-7.620667985542e-12
1.092312335968e-01,3.348297774792e-01,9.252939453125e+03,2.934210815430e+02,1.153057403564e+02,1.050275657326e-02,0.000000000000e+00,1,8.300002664328e-04,-1.416999939829e-02,0.000000000000e+00,-7.613039539056e-12
1.091366261244e-01,3.374553024769e-01,9.241735351562e+03,2.933197937012e+02,1.161885452271e+02,4.048638418317e-02,0.000000000000e+00,1,1.245000399649e-03,-1.375499926507e-02,0.000000000000e+00,-7.605411959932e-12
1.089976653457e-01,3.411726653576e-01,9.225417968750e+03,2.931751403809e+02,1.174399871826e+02,1.472487207502e-02,0.000000000000e+00,1,1.659999601543e-03,-1.334000006318e-02,0.000000000000e+00,-7.597783513447e-12
1.088402196765e-01,3.456161320210e-01,9.206603515625e+03,2.930004577637e+02,1.189322128296e+02,3.148801252246e-02,0.000000000000e+00,1,2.074999734759e-03,-1.292499992996e-02,0.000000000000e+00,-7.590155066961e-12
1.086393967271e-01,3.509680628777e-01,9.182924804688e+03,2.927871093750e+02,1.207295761108e+02,2.837569080293e-02,0.000000000000e+00,1,2.489999867976e-03,-1.250999979675e-02,0.000000000000e+00,-7.582526620475e-12
1.084048599005e-01,3.571641743183e-01,9.155233398438e+03,2.925357055664e+02,1.228043594360e+02,3.846595808864e-02,0.000000000000e+00,1,2.905000001192e-03,-1.209499966353e-02,0.000000000000e+00,-7.574898173990e-12
1.081379652023e-01,3.641509711742e-01,9.123791992188e+03,2.922505798340e+02,1.251447525024e+02,-4.360476136208e-02,0.000000000000e+00,1,3.320000134408e-03,-1.167999953032e-02,0.000000000000e+00,-7.567269727504e-12
1.078336536884e-01,3.719749152660e-01,9.087914062500e+03,2.919226379395e+02,1.277648315430e+02,-2.508446574211e-02,0.000000000000e+00,1,3.735000267625e-03,-1.126499939710e-02,0.000000000000e+00,-7.559642148380e-12
1.075126007199e-01,3.802097737789e-01,9.049883789062e+03,2.915690917969e+02,1.305103607178e+02,5.287439748645e-02,0.000000000000e+00,1,4.150000400841e-03,-1.084999926388e-02,0.000000000000e+00,-7.552013701895e-12
1.071591302752e-01,3.891386985779e-01,9.008043945312e+03,2.911779479980e+02,1.334878997803e+02,4.486635327339e-02,0.000000000000e+00,1,4.564999602735e-03,-1.043500006199e-02,0.000000000000e+00,-7.544385255409e-12
1.067573428154e-01,3.988203108311e-01,8.961000000000e+03,2.907473144531e+02,1.367039031982e+02,-1.194512844086e-02,0.000000000000e+00,1,4.979999735951e-03,-1.001999992877e-02,0.000000000000e+00,-7.536756808924e-12
1.063156425953e-01,4.089412987232e-01,8.909787109375e+03,2.902865295410e+02,1.400626373291e+02,-4.920329432935e-03,0.000000000000e+00,1,5.394999869168e-03,-9.604999795556e-03,0.000000000000e+00,-7.529128362438e-12
1.058446764946e-01,4.199000298977e-01,8.854760742188e+03,2.897771911621e+02,1.436860351562e+02,5.579624697566e-02,0.000000000000e+00,1,5.810000002384e-03,-9.189999662340e-03,0.000000000000e+00,-7.521499915952e-12
1.053427457809e-01,4.318249821663e-01,8.795538085938e+03,2.892105102539e+02,1.476151123047e+02,7.494134455919e-02,0.000000000000e+00,1,6.225000135601e-03,-8.774999529123e-03,0.000000000000e+00,-7.513872336828e-12
1.048102602363e-01,4.439951777458e-01,8.733164062500e+03,2.886183776855e+02,1.516181182861e+02,1.243568658829e-01,0.000000000000e+00,1,6.640000268817e-03,-8.359999395907e-03,0.000000000000e+00,-7.506243890343e-12
1.041992753744e-01,4.572829902172e-01,8.662305664062e+03,2.879555969238e+02,1.559837188721e+02,5.914985015988e-02,0.000000000000e+00,1,7.055000402033e-03,-7.944999262691e-03,0.000000000000e+00,-7.498615443857e-12
1.034894138575e-01,4.719007015228e-01,8.580865234375e+03,2.872047119141e+02,1.607648468018e+02,4.142561554909e-02,0.000000000000e+00,1,7.470000069588e-03,-7.529999595135e-03,0.000000000000e+00,-7.490986997372e-12
1.027910709381e-01,4.872438609600e-01,8.498947265625e+03,2.863948669434e+02,1.657528533936e+02,1.561386417598e-02,0.000000000000e+00,1,7.884999737144e-03,-7.114999461919e-03,0.000000000000e+00,-7.483358550886e-12
1.018992066383e-01,5.047709345818e-01,8.397313476562e+03,2.854454650879e+02,1.714347991943e+02,8.135690353811e-03,0.000000000000e+00,1,8.300000801682e-03,-6.699999328703e-03,0.000000000000e+00,-7.475730104400e-12
1.009724885225e-01,5.233414769173e-01,8.290908203125e+03,2.844150390625e+02,1.774116210938e+02,-1.254614349455e-02,0.000000000000e+00,1,8.715000003576e-03,-6.284999661148e-03,0.000000000000e+00,-7.468102525277e-12
9.995043277740e-02,5.436187982559e-01,8.173540527344e+03,2.832540588379e+02,1.839113311768e+02,-6.975474208593e-02,0.000000000000e+00,1,9.130000136793e-03,-5.869999527931e-03,0.000000000000e+00,-7.460474078791e-12
9.876024723053e-02,5.665960311890e-01,8.037415527344e+03,2.818885498047e+02,1.912116394043e+02,-2.301096729934e-02,0.000000000000e+00,1,9.545000270009e-03,-5.454999394715e-03,0.000000000000e+00,-7.452845632305e-12
9.741599857807e-02,5.920147895813e-01,7.884412109375e+03,2.803333740234e+02,1.992301177979e+02,-2.908600494266e-02,0.000000000000e+00,1,9.959999471903e-03,-5.039999727160e-03,0.000000000000e+00,-7.445217185820e-12
9.592553228140e-02,6.195896863937e-01,7.715761230469e+03,2.786027526855e+02,2.078645172119e+02,-6.448542326689e-02,0.000000000000e+00,1,1.037500053644e-02,-4.624999593943e-03,0.000000000000e+00,-7.437588739334e-12
9.414400905371e-02,6.515341997147e-01,7.516087890625e+03,2.765197753906e+02,2.177744903564e+02,9.946595132351e-02,0.000000000000e+00,1,1.078999973834e-02,-4.209999460727e-03,0.000000000000e+00,-7.429960292848e-12
9.206353873014e-02,6.878150105476e-01,7.284714843750e+03,2.740517883301e+02,2.288538513184e+02,1.106545180082e-01,0.000000000000e+00,1,1.120499987155e-02,-3.794999560341e-03,0.000000000000e+00,-7.422332713725e-12
8.945778757334e-02,7.318840026855e-01,6.998830566406e+03,2.709421081543e+02,2.421041412354e+02,2.241065502167e-01,0.000000000000e+00,1,1.162000000477e-02,-3.379999427125e-03,0.000000000000e+00,-7.414704267239e-12
8.640103042126e-02,7.823954224586e-01,6.667822753906e+03,2.672532043457e+02,2.570548095703e+02,6.344500184059e-01,0.000000000000e+00,1,1.203500013798e-02,-2.964999526739e-03,0.000000000000e+00,-7.407075820753e-12
8.284366875887e-02,8.399946093559e-01,6.289005859375e+03,2.628639526367e+02,2.736789245605e+02,2.890013158321e-01,0.000000000000e+00,1,1.245000027120e-02,-2.549999393523e-03,0.000000000000e+00,-7.399447374268e-12
7.846035063267e-02,9.114151000977e-01,5.828196777344e+03,2.572521972656e+02,2.938321533203e+02,9.551668167114e-02,0.000000000000e+00,1,1.286500040442e-02,-2.134999493137e-03,0.000000000000e+00,-7.391818927782e-12
7.542373985052e-02,9.605676531792e-01,5.515470703125e+03,2.532605285645e+02,3.072904663086e+02,-3.350066840649e-01,0.000000000000e+00,1,1.328000053763e-02,-1.719999476336e-03,0.000000000000e+00,-7.384191348658e-12
7.379154115915e-02,9.871482253075e-01,5.348995117188e+03,2.510713348389e+02,3.144468078613e+02,-8.420000970364e-02,0.000000000000e+00,1,1.369499973953e-02,-1.304999459535e-03,0.000000000000e+00,-7.376562902173e-12
7.285070419312e-02,1.003126978874e+00,5.252693847656e+03,2.497452239990e+02,3.187002563477e+02,2.035280615091e-01,0.000000000000e+00,1,1.410999987274e-02,-8.899995009415e-04,0.000000000000e+00,-7.368934455687e-12
7.193855941296e-02,1.018567919731e+00,5.160152832031e+03,2.484533538818e+02,3.227658081055e+02,3.538245558739e-01,0.000000000000e+00,1,1.452500000596e-02,-4.749994550366e-04,0.000000000000e+00,-7.361306009201e-12
7.027707248926e-02,1.046909332275e+00,4.992987304688e+03,2.460645751953e+02,3.301271362305e+02,4.279499053955e-01,0.000000000000e+00,1,1.494000013918e-02,-5.999946370139e-05,0.000000000000e+00,-7.353677562716e-12
6.801132857800e-02,1.085079431534e+00,4.769050781250e+03,2.428198394775e+02,3.398681945801e+02,8.996623009443e-02,0.000000000000e+00,1,1.535500027239e-02,3.550005494617e-04,0.000000000000e+00,-7.346049116230e-12
6.448944658041e-02,1.145735025406e+00,4.427056152344e+03,2.376071624756e+02,3.548771362305e+02,-8.163153529167e-01,0.000000000000e+00,1,1.576999947429e-02,7.700005662628e-04,0.000000000000e+00,-7.338421537106e-12
5.995050817728e-02,1.224435687065e+00,4.001831298828e+03,2.307900848389e+02,3.735280761719e+02,1.126051545143e+00,0.000000000000e+00,1,1.618500053883e-02,1.185000524856e-03,0.000000000000e+00,-7.330793090621e-12
5.514416471124e-02,1.313044071198e+00,3.565839599609e+03,2.230976409912e+02,3.932943725586e+02,-4.356995522976e-01,0.000000000000e+00,1,1.659999974072e-02,1.600000541657e-03,0.000000000000e+00,-7.323164644135e-12
5.052023753524e-02,1.400655865669e+00,3.156558105469e+03,2.154985656738e+02,4.122543029785e+02,-1.208110153675e-01,0.000000000000e+00,1,1.701500080526e-02,2.015000674874e-03,0.000000000000e+00,-7.315536197650e-12
4.637649655342e-02,1.484915614128e+00,2.803284912109e+03,2.082816314697e+02,4.293054199219e+02,7.407276034355e-01,0.000000000000e+00,1,1.743000000715e-02,2.430000575259e-03,0.000000000000e+00,-7.307907751164e-12
4.250410199165e-02,1.567092895508e+00,2.481545654297e+03,2.013018798828e+02,4.453203125000e+02,5.890609025955e-01,0.000000000000e+00,1,1.784500107169e-02,2.845000475645e-03,0.000000000000e+00,-7.300279304678e-12
3.934388607740e-02,1.638414502144e+00,2.226511230469e+03,1.953204803467e+02,4.588281860352e+02,-9.192765504122e-02,0.000000000000e+00,1,1.826000027359e-02,3.260000608861e-03,0.000000000000e+00,-7.292651725554e-12
3.679576143622e-02,1.700165033340e+00,2.027580566406e+03,1.902141265869e+02,4.699135742188e+02,2.872337400913e-01,0.000000000000e+00,1,1.867499947548e-02,3.675000509247e-03,0.000000000000e+00,-7.285023279069e-12
3.455907478929e-02,1.756110906601e+00,1.856364624023e+03,1.856357269287e+02,4.797085876465e+02,1.194984436035e+00,0.000000000000e+00,1,1.909000054002e-02,4.090000409633e-03,0.000000000000e+00,-7.277394832583e-12
3.276352584362e-02,1.803587913513e+00,1.725036376953e+03,1.818305358887e+02,4.878723754883e+02,1.577888011932e+00,0.000000000000e+00,1,1.950499974191e-02,4.505000542849e-03,0.000000000000e+00,-7.269766386098e-12
3.106000833213e-02,1.848459243774e+00,1.600104125977e+03,1.782301025391e+02,4.954933471680e+02,9.123615026474e-01,0.000000000000e+00,1,1.992000080645e-02,4.920000676066e-03,0.000000000000e+00,-7.262138373293e-12
3.004429303110e-02,1.879003763199e+00,1.527658569336e+03,1.758596649170e+02,5.003445434570e+02,2.300612628460e-01,0.000000000000e+00,1,2.033500000834e-02,5.335000809282e-03,0.000000000000e+00,-7.254509926807e-12
2.914146147668e-02,1.906661748886e+00,1.463139038086e+03,1.737186279297e+02,5.045972290039e+02,5.100676417351e-01,0.000000000000e+00,1,2.075000107288e-02,5.750000476837e-03,0.000000000000e+00,-7.246881480322e-12
2.833184972405e-02,1.931554079056e+00,1.406592529297e+03,1.718088684082e+02,5.084386901855e+02,3.882700502872e-01,0.000000000000e+00,1,2.116500027478e-02,6.165000610054e-03,0.000000000000e+00,-7.239253467517e-12
2.759857662022e-02,1.954181551933e+00,1.356575195312e+03,1.700885009766e+02,5.119434204102e+02,-6.256721168756e-02,0.000000000000e+00,1,2.157999947667e-02,6.580000743270e-03,0.000000000000e+00,-7.231625021031e-12
2.687135897577e-02,1.976759195328e+00,1.306859863281e+03,1.683710327148e+02,5.154265747070e+02,-2.002133578062e-01,0.000000000000e+00,1,2.199500054121e-02,6.995000410825e-03,0.000000000000e+00,-7.223996574546e-12
2.629221789539e-02,1.995728611946e+00,1.267903930664e+03,1.669534454346e+02,5.182249145508e+02,3.261309862137e-01,0.000000000000e+00,1,2.240999974310e-02,7.410000544041e-03,0.000000000000e+00,-7.216368561741e-12
2.581291273236e-02,2.012217283249e+00,1.235850463867e+03,1.657369995117e+02,5.205565795898e+02,8.241336047649e-02,0.000000000000e+00,1,2.282499894500e-02,7.825000211596e-03,0.000000000000e+00,-7.208740115255e-12
2.534439601004e-02,2.028478145599e+00,1.204442993164e+03,1.645378112793e+02,5.228403320312e+02,-2.362906038761e-01,0.000000000000e+00,1,2.324000000954e-02,8.240000344813e-03,0.000000000000e+00,-7.201111668770e-12
2.485381253064e-02,2.045842885971e+00,1.171975830078e+03,1.632695465088e+02,5.252733764648e+02,-3.760693669319e-01,0.000000000000e+00,1,2.365500107408e-02,8.655000478029e-03,0.000000000000e+00,-7.193483655965e-12
2.438833937049e-02,2.063432693481e+00,1.141358398438e+03,1.620025482178e+02,5.276873779297e+02,-5.739669203758e-01,0.000000000000e+00,1,2.407000027597e-02,9.070000611246e-03,0.000000000000e+00,-7.185855209479e-12
2.393060363829e-02,2.080947637558e+00,1.111248168945e+03,1.607434539795e+02,5.300808105469e+02,-8.039222359657e-01,0.000000000000e+00,1,2.448499947786e-02,9.485000744462e-03,0.000000000000e+00,-7.178226762994e-12
2.346865087748e-02,2.098575353622e+00,1.081011962891e+03,1.594788970947e+02,5.324714355469e+02,-9.539695978165e-01,0.000000000000e+00,1,2.490000054240e-02,9.900000877678e-03,0.000000000000e+00,-7.170598750189e-12
2.298499643803e-02,2.116885900497e+00,1.050286499023e+03,1.581835479736e+02,5.348331909180e+02,-6.919394135475e-01,0.000000000000e+00,1,2.531500160694e-02,1.031500101089e-02,0.000000000000e+00,-7.162970303703e-12
2.253137901425e-02,2.135100364685e+00,1.021569152832e+03,1.569084167480e+02,5.371156005859e+02,-9.928373694420e-01,0.000000000000e+00,1,2.573000080884e-02,1.073000114411e-02,0.000000000000e+00,-7.155341857218e-12
2.207776345313e-02,2.153314590454e+00,9.928519287109e+02,1.556332855225e+02,5.393979492188e+02,-1.293734669685e+00,0.000000000000e+00,1,2.614500001073e-02,1.114500034600e-02,0.000000000000e+00,-7.147713844413e-12
2.163019776344e-02,2.171612501144e+00,9.646848754883e+02,1.543597106934e+02,5.417072143555e+02,-1.444489836693e+00,0.000000000000e+00,1,2.656000107527e-02,1.156000047922e-02,0.000000000000e+00,-7.140085397928e-12
2.119521610439e-02,2.190084218979e+00,9.376619873047e+02,1.530893249512e+02,5.440722656250e+02,-1.283038973808e+00,0.000000000000e+00,1,2.697500027716e-02,1.197500061244e-02,0.000000000000e+00,-7.132456951442e-12
2.078111842275e-02,2.208185434341e+00,9.119973754883e+02,1.518545227051e+02,5.463616333008e+02,-1.313129186630e+00,0.000000000000e+00,1,2.738999947906e-02,1.239000074565e-02,0.000000000000e+00,-7.124828938637e-12
2.039287425578e-02,2.225827455521e+00,8.880143432617e+02,1.506637573242e+02,5.485573730469e+02,-1.580336928368e+00,0.000000000000e+00,1,2.780500054359e-02,1.280500087887e-02,0.000000000000e+00,-7.117200492152e-12
2.000463008881e-02,2.243469715118e+00,8.640313720703e+02,1.494729919434e+02,5.507531738281e+02,-1.847544670105e+00,0.000000000000e+00,1,2.822000160813e-02,1.322000101209e-02,0.000000000000e+00,-7.109572479347e-12
1.961322128773e-02,2.261548280716e+00,8.403986816406e+02,1.482687530518e+02,5.529174804688e+02,-1.760493516922e+00,0.000000000000e+00,1,2.863500081003e-02,1.363500114530e-02,0.000000000000e+00,-7.101944032861e-12
1.922038011253e-02,2.279824256897e+00,8.169246215820e+02,1.470584259033e+02,5.550676269531e+02,-1.513088822365e+00,0.000000000000e+00,1,2.905000001192e-02,1.405000034720e-02,0.000000000000e+00,-7.094315586376e-12
1.881982199848e-02,2.298423528671e+00,7.934161376953e+02,1.458396148682e+02,5.571589965820e+02,-1.369799137115e+00,0.000000000000e+00,1,2.946500107646e-02,1.446500048041e-02,0.000000000000e+00,-7.086687573571e-12
1.841613464057e-02,2.317153692245e+00,7.698937988281e+02,1.446173553467e+02,5.592266235352e+02,-1.268687486649e+00,0.000000000000e+00,1,2.988000027835e-02,1.488000061363e-02,0.000000000000e+00,-7.079059127085e-12
1.801244914532e-02,2.335884094238e+00,7.463713989258e+02,1.433951110840e+02,5.612943115234e+02,-1.167575955391e+00,0.000000000000e+00,1,3.029499948025e-02,1.529500074685e-02,0.000000000000e+00,-7.071430680600e-12
1.768265478313e-02,2.352393865585e+00,7.276481933594e+02,1.423524322510e+02,5.632166748047e+02,-8.570855259895e-01,0.000000000000e+00,1,3.071000054479e-02,1.570999994874e-02,0.000000000000e+00,-7.063802667795e-12
1.735304482281e-02,2.368898391724e+00,7.089369506836e+02,1.413102111816e+02,5.651386718750e+02,-5.460692048073e-01,0.000000000000e+00,1,3.112500160933e-02,1.612500101328e-02,0.000000000000e+00,-7.056174221309e-12
1.702343486249e-02,2.385402679443e+00,6.902257690430e+02,1.402679901123e+02,5.670606689453e+02,-2.350542694330e-01,0.000000000000e+00,1,3.153999894857e-02,1.654000021517e-02,0.000000000000e+00,-7.048545774824e-12
1.669440232217e-02,2.402448177338e+00,6.717180786133e+02,1.392030792236e+02,5.689601440430e+02,1.345807015896e-01,0.000000000000e+00,1,3.195500001311e-02,1.695500127971e-02,0.000000000000e+00,-7.040917762019e-12
1.636560074985e-02,2.419710397720e+00,6.532919921875e+02,1.381291046143e+02,5.708506469727e+02,5.276856422424e-01,0.000000000000e+00,1,3.237000107765e-02,1.737000048161e-02,0.000000000000e+00,-7.033289315533e-12
1.608692109585e-02,2.434898138046e+00,6.380195312500e+02,1.372039184570e+02,5.724696044922e+02,7.100754976273e-01,0.000000000000e+00,1,3.278500214219e-02,1.778500154614e-02,0.000000000000e+00,-7.025660869048e-12
1.582295261323e-02,2.449476718903e+00,6.236727294922e+02,1.363224334717e+02,5.740089111328e+02,8.306174874306e-01,0.000000000000e+00,1,3.319999948144e-02,1.820000074804e-02,0.000000000000e+00,-7.018032856243e-12
1.555898506194e-02,2.464055538177e+00,6.093259887695e+02,1.354409332275e+02,5.755482177734e+02,9.511594772339e-01,0.000000000000e+00,1,3.361500054598e-02,1.861499994993e-02,0.000000000000e+00,-7.010404409757e-12
1.529501564801e-02,2.478634119034e+00,5.949791259766e+02,1.345594329834e+02,5.770874633789e+02,1.071702003479e+00,0.000000000000e+00,1,3.403000161052e-02,1.903000101447e-02,0.000000000000e+00,-7.002775963272e-12
1.502953842282e-02,2.493447542191e+00,5.806271972656e+02,1.336690979004e+02,5.786182861328e+02,1.219567894936e+00,0.000000000000e+00,1,3.444499894977e-02,1.944500021636e-02,0.000000000000e+00,-6.995147950467e-12
1.476125605404e-02,2.508697032928e+00,5.662656860352e+02,1.327623138428e+02,5.801333618164e+02,1.418183803558e+00,0.000000000000e+00,1,3.486000001431e-02,1.986000128090e-02,0.000000000000e+00,-6.987519503981e-12
1.452506519854e-02,2.523419141769e+00,5.538683471680e+02,1.319064636230e+02,5.816884765625e+02,1.397752404213e+00,0.000000000000e+00,1,3.527500107884e-02,2.027500048280e-02,0.000000000000e+00,-6.979891057496e-12
1.429348532110e-02,2.538065195084e+00,5.417531738281e+02,1.310579223633e+02,5.832493896484e+02,1.345844030380e+00,0.000000000000e+00,1,3.569000214338e-02,2.069000154734e-02,0.000000000000e+00,-6.972263044691e-12
1.406122092158e-02,2.552718400955e+00,5.295989990234e+02,1.302087249756e+02,5.847930297852e+02,1.274441242218e+00,0.000000000000e+00,1,3.610499948263e-02,2.110500074923e-02,0.000000000000e+00,-6.964634598206e-12
1.382350735366e-02,2.567427158356e+00,5.171343994141e+02,1.293541564941e+02,5.861997070312e+02,1.047995686531e+00,0.000000000000e+00,1,3.652000054717e-02,2.151999995112e-02,0.000000000000e+00,-6.957006151720e-12
1.358579285443e-02,2.582135677338e+00,5.046697082520e+02,1.284995880127e+02,5.876063842773e+02,8.215491175652e-01,0.000000000000e+00,1,3.693500161171e-02,2.193500101566e-02,0.000000000000e+00,-6.949378138915e-12
1.335392054170e-02,2.596834421158e+00,4.925702209473e+02,1.276520919800e+02,5.890255737305e+02,6.052172183990e-01,0.000000000000e+00,1,3.734999895096e-02,2.235000021756e-02,0.000000000000e+00,-6.941749692430e-12
1.314587239176e-02,2.611492633820e+00,4.819597473145e+02,1.268333435059e+02,5.904959716797e+02,4.301266968250e-01,0.000000000000e+00,1,3.776500001550e-02,2.276500128210e-02,0.000000000000e+00,-6.934121245944e-12
1.293782424182e-02,2.626150846481e+00,4.713493041992e+02,1.260145950317e+02,5.919663085938e+02,2.550369799137e-01,0.000000000000e+00,1,3.818000108004e-02,2.318000048399e-02,0.000000000000e+00,-6.926493233139e-12
